0,1,2,3,4,5,6,7,8,9,10,11,12,13,14
-5.063895678165346,-1.3033523222676422,0.30336089968713625,-1.046273793545781,0.26021314302820725,-1.0229178269426655,-0.054845956810936805,0.11533465494815616,-1.831878022495417,-0.6443011650082751,-0.30961405559728455,-0.12093158769603288,-0.751251916485895,0.011640056836006489,0.11838585703655423
17.05701589446161,0.896819013516255,-0.3274647503569393,2.2779184531226733,4.5026322393801035,0.015418342223030046,1.8993914913876144,-0.2490494152593888,-0.24704738439041782,-0.11476793046675501,-0.30399798847531917,-1.0216560573521576,-0.19231032870758713,0.8550352713504611,0.039540170667393126
18.412414756229907,0.6652475685423809,-0.11357628321253743,0.3597987557581443,0.5329762387249195,0.15123130455418016,0.22571907428479956,-0.11277879142184687,-0.0769077420499363,-0.19643643150533405,0.5128412844532922,1.1890389869148328,-0.2444355885371718,-0.3294158917137492,0.19050067163412568
10.687151843502734,-0.3527437422530752,0.030499388706267706,-0.7500262454501331,-3.0861384861135552,-0.6293866819497349,-0.03325606502742193,-0.7182078126175485,0.38322986422479155,-0.24255616414029754,0.33638079633637274,-0.34042521598915126,-0.13820331071399897,0.03304489258182229,0.05875597391400225
-3.5250755121966812,-1.0664625507515313,-0.2530932891164227,3.245953165034683,-0.3388545020101393,-0.39081284600304655,-0.7915316795293146,-0.26544774950095834,0.38830523300966596,0.8390811904464579,1.749758925101503,-0.03690838862641224,-0.2567128563489858,0.5746262016101132,0.07625216481410209
-5.210122614519275,5.510998963809451,-2.3720940184886574,-1.5409273791601685,0.5019484162744464,1.0717756228827862,-0.08047065227471116,-0.10665711512905769,0.16729034719347952,0.4972579930441452,-0.330636898094803,0.21166450475510992,-0.20312172709367843,0.05532631970259448,-0.22699225043255336
-4.4800454258853355,-0.7326539519017722,-0.10048972632948262,1.1231966387260046,-0.18813807624079065,3.009335528762091,0.5981531901939234,-0.4945274080301996,0.16852334176347145,-0.19848020677428888,-0.15268971697493763,-0.07195038191039632,0.2081443844001822,-0.1034219767132078,0.13856026364168678
-4.382428275378182,-0.7436266707685867,-0.14366467637686467,1.2504649488733715,-0.24188719565588196,2.916145022273644,0.7439311212524045,-0.564947694764506,0.2840022295249076,-0.19401508696372885,-0.1865888982228962,-0.097314766593047,0.15356020029529904,-0.1505524710572707,0.22025270411259826
-4.783388586538307,-1.1521775098901865,0.25117050707147054,-0.6272880101961086,0.43286704951695154,-0.7852164794477837,1.043222900329056,-0.784550511266758,0.9622559126010066,0.1599148294208878,-0.24891767945286075,-0.08093758490280589,0.20827911092989024,-0.22100610715981103,0.23901153506905173
-5.1756729668576,5.016662422788083,-2.1120377987685486,-1.7277332250340804,0.49680874015230286,1.3530639823596007,-0.02000017096688691,-0.014093871815171957,0.1869381752807074,0.28856919516593693,-0.1276889153964141,0.11646219809259459,-0.1353355101631305,0.07399251141461057,-0.3001213095411694
-5.432022538375498,-1.0702341061049563,0.45506298629758163,-1.9486495120570253,1.0881287168613858,0.015185145726527008,-0.6270457772802281,0.4845577577777059,0.4504386581429331,0.11821716062288884,0.07419754929701801,-0.1618166745873844,0.01611916278330098,-0.09527187025536578,0.2482130340665037
9.104621219370069,-0.33585660116662774,0.1863551389990638,-1.5604753634458581,-2.6686260482228956,-0.2869443118687532,-0.6525807901465617,-0.17978523490875925,0.13667615059226657,-0.11937941898287353,0.0679479114993308,-0.4502435341947604,-0.10655576510275644,0.17830774654217013,-0.03554404684416127
-4.865308924974951,-1.3551991080886356,0.19012235739679084,-0.5569892354161858,0.08856831451961814,-1.4082871494115974,0.4409243030693593,-0.26867314364416967,-1.5659015149464952,-0.5876391668992142,-0.44656656962245295,-0.09130970648742548,-0.3961741092924456,-0.015772201048090434,0.19294667095673404
-4.116353014380374,-0.6134563290519613,-0.19265394084860832,1.481498415926861,-0.24615931696599935,1.6134211405454646,-1.054323131503005,0.5772465191431273,-1.5889253601391884,1.7848137446754992,-0.24049118505621286,-0.047858120330331794,0.20958826143864936,-0.20563118769584793,0.6249200598646701
-3.955134842956143,-0.9651052121901801,-0.23226678357538064,1.879873843140922,-0.6529061960172824,1.9014244992511267,1.212616818362328,-0.8188625394327439,0.018898105284426148,-0.6259878050068165,0.1531583050523802,-0.06741504961335486,-0.015801992307236747,-0.09369175750403616,0.059943769410544794
-4.153062702751426,-0.9633096315399016,-0.25738360584083514,2.0706162673735946,-0.5072666318424209,1.9408596572934955,-0.739760048559892,0.6715703373883642,-0.1460861535699031,-1.1969717755003495,0.6760065742328977,-0.2728673264498036,-0.24225350397432782,-0.09036201231775721,-0.008079890329632133
-3.917733822093501,-0.8992426524480003,-0.2957975379922156,2.3783495493633717,-0.6700355088775742,1.256858321081992,-0.8562246041051685,0.7531848460196484,-1.7856175132223624,-0.09368162190762168,-0.14257728206910855,0.6274266513434831,0.541184909259324,0.3658723864750621,-0.02150809969563328
-5.15973624250233,5.35531410013766,-2.184998447402601,-1.7002625153432411,0.5415959702423009,1.179944043490564,0.05525342655649536,-0.20499569970859052,0.16943858711973292,0.356885128285942,-0.13563877691116494,0.12550951320288595,-0.21006229380896976,0.08309011197360189,-0.32400113758952453
-4.396935727716537,-0.8409303064870649,-0.05334658259078397,0.6979772147765271,-0.20942364965866253,2.443792916694821,0.9528522305547823,-0.5791469528211602,-0.05827214500018574,-0.15317574375204845,-0.15643340836685943,0.0674229073671496,0.15708732211059195,0.011888101601372908,0.0817545610599808
-3.4361353381318884,-1.1948958790614583,-0.501394006930308,4.217949651506634,-0.5322055155158628,-1.4360305905789255,-2.0319518609632716,1.6526375647647664,2.2856838672630273,-0.20411742161493218,-1.455217565199687,0.3043466016562598,-0.25316596271672825,0.14820312121484058,0.5670324546424316
-2.536441297355581,-1.1115748991115593,-0.9189822329646634,6.185783490564175,-1.5840655157098735,-1.2498973206478414,-0.21328704096648707,-0.8276529046237818,-1.6580841417777665,1.064340764776064,1.401222423681097,1.1332096816553334,0.0204699925703437,1.218014059469564,-0.1935491853016584
-2.6247684985802873,-1.1237069875453867,-0.6877940677216405,5.1630936207258165,-1.4322930471250226,-1.126728218010051,-1.2291487424748946,0.35879259234873523,-2.0994383714801828,0.9063943000585396,-0.2860896939205978,-0.33685297142421794,-0.32510773061821424,-0.4776534093692241,-0.387194730328012
-4.977885642893015,-1.0922314193401685,0.267066170345701,-0.85100044471809,0.6598091859984662,-0.8522530319185933,-0.06228694755135403,-0.37906738494272973,0.6535645022991582,0.7079166637618707,1.0156098077991225,0.1865406432191143,-0.023640408147100327,0.417013200091359,0.3675902746168888
9.813193628779272,-0.3407757419612812,-0.09321983409571583,-0.37957493345650445,-2.9889941707641134,-0.8004732581769651,0.7296317808912113,-1.237725906146401,0.5738729990808202,-0.10951826565137272,0.1601685372773235,-0.2614965353131368,-0.003035706242339528,0.030226418225718282,0.1845230047182284
9.79405774671353,-0.2809535644400574,0.11109029254347813,-1.342757080832607,-2.9001605349852517,-0.30637477855868134,-0.4334821905243817,-0.29617018580740795,0.04571266751486604,-0.11772764748296248,0.09877202908486497,-0.4659081184360822,0.1325413806907068,0.21690194995786055,0.05104183145619544
-4.749851901845272,-1.1292662336115644,0.2711721942730326,-0.712974814282352,0.4026253854164782,-0.6114972127617947,1.0897590491426958,-0.8238164461869143,0.6498681139054927,0.07718766082593505,0.03780424752620415,-0.20750541729370106,0.08906272376063297,-0.20386570678764984,0.17373764742419912
3.660752753386265,-0.32441738338717435,0.25807418970634516,-1.8416941709513885,-1.067425723736047,1.0975720983978468,-0.10161201335695663,-0.30311277897288397,0.22612360038734045,0.534908905797751,-0.41132134524124503,0.14983704723408525,0.1942139129551934,0.20283316742633767,-0.03278422992971313
10.142295713316583,-0.3237843959832983,-0.09791999941341634,-0.3697307139618324,-3.063874636892113,-0.7009715508699762,0.6141072389484125,-1.2563063800446592,0.5113568106065871,-0.13676167491119526,0.27018153837581377,-0.17023747050728144,0.023015866195597846,0.06507954473012023,0.11918464219328034
5.880570490735529,-0.3583753163017075,0.3364390741906763,-2.0697559497108506,-1.612417921929126,0.2907258828706851,-0.9654487019685433,0.23156533117334643,0.256016914290059,0.04761557580837305,-0.24055376341875012,-0.2529345918336883,-0.1257178211928419,0.11038149217593343,-0.045986016645124
9.19342344489518,-0.3377835689878283,0.12643860962602094,-1.3236576112227214,-2.7380680988179615,-0.3444941882779931,-0.23308304257631698,-0.4402328011944777,0.2250031415122069,-0.10464091853253366,0.11920653707413179,-0.41362121230034476,-0.016538211740606205,0.15372704632607384,0.0421515203016575
10.38367062505666,-0.3333137246512978,-0.06351802151826816,-0.4453767359011472,-3.1461226981286385,-0.7682849459472384,0.5502732010155038,-1.1894905574271857,0.501860530956435,-0.1518251617686839,0.3502164974969792,-0.2362806992199902,-0.09608128459435951,0.06881691955635669,0.0864483277105317
-1.76508886629556,-1.3881007152234748,-0.9064838035473773,5.821893077268321,-2.356176846875104,-1.6193701631337638,3.395215079344839,-2.4213288920557448,-0.30932217276830215,-0.24294394672753586,-0.23931068956592255,0.2856686397051188,0.6527511441648648,-0.11011854162768023,-0.5925155587991217
12.366640886150078,-0.0760978907135975,0.135732960979139,-1.25438180862114,-2.9362502386505973,0.030710676272558985,-1.1631656624707007,0.18783988207383318,-0.1982016770831937,-0.07762730008271751,-0.13648934089594547,0.020593421827793945,0.09288232811903324,0.1105214423549869,-0.1253139246643223
-3.8452530578048987,-1.1677674969872855,0.0030194386191977414,2.166541849662291,-0.07307055182923275,-0.08189272356570557,-0.4915112543649538,-0.18717210710150717,1.086503547065296,0.40246447034414967,0.11281692632827951,0.06602592514956158,-0.14004675676039927,0.03819596177224019,-0.5349006787924419
-4.1876393208578975,-0.9589687258218477,-0.1749680679544359,1.7792446214879962,-0.4957165185569832,1.592992613737746,-1.129389986978307,1.0663021930696384,-0.8630485043377087,-1.2648754156837545,0.4824095147671179,-0.2446397827649083,-0.23814816559564067,0.012847326304132906,0.12925867332797375
-4.736216639579469,-1.10132193753747,0.25256651182641054,-0.6854562133816585,0.4734860939775623,-0.6073992184395316,1.1171456167662606,-0.8469844718007438,0.737411108241696,0.18388673743201406,-0.1693892427612259,-0.06801516812204644,0.05066211836882533,-0.1696585702012805,0.13624756446163339
13.73013434918489,0.1365721975116165,0.10764958972948166,-0.12589457459059808,0.4991398765214652,-0.009259742712024281,-0.2938223033794219,0.20452245074330302,0.01286680822974784,-0.30706135817834446,0.2587801263946633,0.46756519963206966,-0.2612809599798232,-0.7523713540515402,0.09323272386387374
19.024390873747585,0.7183431918462674,-0.1528793750098937,1.0664529619254455,1.6197093740839834,0.1242573359207878,0.5810867563129655,-0.14069001252605595,-0.07503048394438055,-0.26146527813114184,0.697817820613271,1.124495444818836,-0.38210268123517366,-0.10762079478220626,0.2158837665956559
-4.598225188868621,-1.3382274097199507,0.18618851725597615,-0.4548671970950632,-0.06787791336812007,-1.2771354360871268,1.5866441771708526,-0.9748139187956888,-0.8745934403766844,-0.2754934350243905,-0.49604793531159336,-0.005469992367792378,-0.16035100304306643,-0.015840725533396105,0.19719396446645399
-5.435920521597296,-1.2177478900987597,0.38714762792946716,-1.5150097637134294,0.9741327196861918,-0.5665440781759274,-0.7717483968747663,0.4284680668336913,0.48648302429900964,-0.0992000029020324,0.5337697440890927,-0.5424863972580688,0.006127013196659805,-0.37605055034876517,0.3083210487477523
-3.35195973790325,-1.194683194188287,-0.4967831608100615,4.163142303262478,-0.6207193996670631,-1.187971257011548,-2.0103270607838386,1.6230035494644013,1.708520344977952,-0.5834839683272405,-0.9428226875983208,0.046782208103600995,-0.4434448178548529,0.0893576619079218,0.524388255243809
-5.033056568309323,-1.1573827433011215,0.2943657430946762,-0.9369458327238295,0.6715239354190872,-0.8399947831280983,-0.002013345639784803,-0.3898683439150727,0.5989216184126486,0.7156133000912193,1.0541691202778463,0.23240279340486691,-0.16260466050856218,0.4529785542781741,0.36986273631605576
-3.696062964121968,-0.8871643139610236,-0.3298485815485465,2.222210062093692,-0.7600128802156717,1.8746871587975875,1.5610248398538533,-1.114581966247675,0.09658041270627059,-0.688614977923684,0.039584950964456994,-0.21310160258816296,-0.05626759126598224,-0.13968719029667398,0.21412126068453732
-5.1401475384341095,-1.1413311132941624,0.3121019546651766,-1.3671628259458977,0.7403659669533136,-0.7618905186646738,-0.5880855331928326,0.0707480563350871,-0.31952327605823316,0.8142983037375435,0.6080476147401201,-0.3256297392298376,-0.5513989889359953,-0.25005965286587883,0.3928064633855293
9.604330017921173,-0.1558405240385792,0.19347533344713855,-1.5775190527585699,-2.3767174680962664,0.49468019839051314,-0.7779973827575993,0.052533298340904463,-0.19335365441357147,0.16073933364878257,-0.2961456030007312,-0.019107061818035013,0.15262269483445456,0.13194005791219032,-0.07244106911178332
-4.430956198591545,-1.3160403158860043,0.13026326516139902,-0.2683212964580948,-0.15041552104647332,-1.363111377113496,2.0267806084085858,-1.3093681951054827,-0.8436397508221001,-0.22848075913704635,-0.4542597501421644,0.016199362450885803,-0.16055661055842943,-0.010747709779952756,0.1834178333543219
10.343963847772748,-0.11674997701904526,0.191396463063559,-1.470022254983688,-2.538947643441288,0.2862860594915919,-0.7600834162506368,0.05597089068306093,-0.16901619199925438,0.11223959980624579,-0.29088643949995135,-0.009430851092534446,0.13073243995168973,0.1426453917399687,-0.061645535059162974
14.511293287691812,0.13485689974005544,0.06270639503248893,0.15947765114570772,0.40590903474908974,-0.11334217933653802,-0.24326115074088228,0.08938911902915274,0.09661642766262338,-0.3683430542393325,0.4197942799303621,0.5768024854188317,-0.3658360606536884,-0.800420481851599,0.044988008821735884
-3.994330831376575,-0.7527641294302064,-0.2927953301833586,2.0070751039424333,-0.559292491386278,2.723996648403543,1.2000957339451646,-0.8863153920651227,0.3152224391301439,-0.46576851230480926,-0.1976053072281712,-0.3120105982627303,0.1020248362301867,-0.2692588774481247,0.3913358118951946
-4.7496577577917245,-0.6556505097883563,0.12488562054783921,-0.45023009788675045,0.2363722065441555,2.6636863738085235,0.7948221470534599,-0.41958392191758537,-0.09351816001784759,0.1276701790282582,-0.4288796432812791,0.11270350528438668,0.11703401655855547,0.04067647507840644,0.17631767102449464
12.990642775543202,-0.019574024646012066,0.09552887698149432,-1.2537723804566923,-2.7520881050150927,-0.18913123209019234,-1.0773908038305673,0.23077409566774246,-0.2892712582241348,-0.10980605186124025,-0.19508782903693825,0.0189136857464363,-0.0023462207238010542,0.019551895804923433,-0.030874496907318465
-3.6408094544217686,-1.156136904824421,-0.3360639174255957,3.1461026900163698,-0.3440158323474146,-0.978588182279634,-0.9767244543351702,0.5587742224951281,2.226569550734592,-0.02982577473971551,-0.9779483576137151,0.2067471742581047,-0.17658777068086853,0.17074251763610535,-0.03691147509953212
-5.005714102212524,-1.1406804902371908,0.321093695060857,-0.9887339127547639,0.6382576357593259,-0.7984887629329975,0.06557953490553564,-0.3781430209985984,0.5495171345418918,0.7227225965388112,1.009520600259796,0.29533278376933236,-0.16458003866441434,0.5095091397048377,0.3413668533698959
-4.116353014380374,-0.6134563290519613,-0.19265394084860832,1.481498415926861,-0.24615931696599935,1.6134211405454646,-1.054323131503005,0.5772465191431273,-1.5889253601391884,1.7848137446754992,-0.24049118505621286,-0.047858120330331794,0.20958826143864936,-0.20563118769584793,0.6249200598646701
-5.261045855383714,3.8613732312986935,-1.4569938091545076,-1.8794549256561304,0.6094233070970643,1.3820772811758582,0.08051847108494525,-0.07875355688152968,0.4057361229317914,0.49689376003208874,-0.2311704526274444,0.1780763333029857,-0.1579092290177498,0.10248506380519667,-0.3696226758356793
-4.166726186537551,-1.0580457396304104,-0.17475310386078174,1.7162301673194926,-0.4892722326354804,1.5402345717757455,-0.5925082370770799,0.5909027498137475,-0.6016751540685347,-1.1348932369236489,0.5307205462347284,-0.12330078530832746,-0.3537321788720068,0.009721032580605665,-0.052020940374967545
-2.243071505001504,-0.9139819523367477,-0.8996760241884788,4.969872573103971,-1.3158831066073264,-1.583289087850764,-0.26430561992205787,-0.9477577510654293,-0.9320720174943616,2.648599478551137,0.24402558464728438,-1.0006553050942297,-0.23276603289622788,-0.7547075474037965,-0.5499104773405334
-2.41571109948378,2.9346308051605448,-1.1576887844133272,-0.3795894547598182,-4.66120837309528,-0.7924050276139729,7.428549940145664,8.747550067259052,0.548427473347203,0.7015388762582218,0.5337156467765379,-0.03149090233885543,-0.018892398762328746,-0.03951191039475419,-0.04164379145685258
-4.64274534172867,-0.7625978083564744,0.06171672131465538,0.3941429332985599,0.012895643387386295,2.894678342952834,0.48717744304245436,-0.30256571427535967,0.10945425235027435,-0.027449517348528046,-0.15648823825193342,0.02975273939154849,0.16202027811353995,-0.02670218963296929,0.12132786295540837
-4.116353014380374,-0.6134563290519613,-0.19265394084860832,1.481498415926861,-0.24615931696599935,1.6134211405454646,-1.054323131503005,0.5772465191431273,-1.5889253601391884,1.7848137446754992,-0.24049118505621286,-0.047858120330331794,0.20958826143864936,-0.20563118769584793,0.6249200598646701
-4.7025432210892495,-0.7335362379338708,0.04769837862484325,0.3477847146536871,0.029816486902924266,3.0282474194463496,0.3958340878260049,-0.18533354863613044,0.027929743203792892,0.03688526037657115,-0.2047074477456499,0.1355670368337536,0.21260045218634124,0.008821562060850607,0.10188548611818918
-5.250536211404074,-1.2401874731802733,0.3955496743664544,-1.4077092242950318,0.6720160006008848,-0.5072267818394594,-0.3378363070739162,0.16482970345439288,-0.607041062673663,-0.09831504039082625,0.31597539904396943,0.019743835119006792,-0.3699431615248436,0.09648773706637406,0.10117045031523901
-5.315628404534707,3.396755263583348,-1.217471010145845,-2.1434699052786317,0.6879853498864753,1.5397027669566141,0.10263634607729383,-0.08007308287378473,0.18050405878171416,0.4668168874388859,-0.17979292680707,0.15157526792527004,-0.3116994486700951,0.09308224755445377,-0.28674008091253317
17.613883736569726,0.6578283089884802,-0.1476200637588221,0.7573814771484735,1.5233251937906374,0.110949355645517,0.8763054006263779,-0.23624186256247764,-0.04240745986180309,-0.1739524492872507,0.11829220371986839,0.5831701043106969,-0.05476625407211963,-0.45019001991506885,0.09688857784147391
-4.949520959066964,8.77451311771399,-4.106202087767722,-0.5490663820973248,0.061797384552021065,0.5314380148637837,-0.35286919367686237,0.09357271865453104,0.0742447271445415,0.23073886550805842,-0.3083954397269572,0.15191644014519015,0.14472361736550843,-0.026780731395328338,-0.002522794125395099
10.327105105999728,-0.11301302199188944,0.17492848267032973,-1.516816466733872,-2.488715632212582,0.3538177787966189,-0.8876471016103173,0.15909354378571633,-0.17594469844063396,0.11534624921872788,-0.3033782083356776,0.013226658728835404,0.19608364390839927,0.1048754061391099,-0.07558917517796376
9.176789504539098,-0.3141696680750219,0.23536706109575395,-1.6908076396338807,-2.6221158803350972,-0.21031370126372492,-0.8808670379213001,0.013311783046206267,0.057545976051116256,-0.16959168369823635,0.06790191287804241,-0.4838399023718249,-0.1451047665565816,0.16056502693448724,-0.03335681004704698
6.676181906181092,-0.21479960297051617,0.28777961021284865,-1.9201115939457987,-1.7569044238924094,0.8498049056915252,-0.49530340007313095,0.0562733288109345,-0.13120412495746892,0.3526407834553429,-0.411141976392882,-0.0234430951471851,0.16966987848949036,0.16419716119030137,-0.019973876788183645
-3.390900274963358,-1.2095406027981923,-0.45888218030437544,4.3193823502887465,-0.6146298312796121,-1.0704410545009702,-1.547079613564012,1.048855665208924,2.1319402383585504,-0.21142748561299327,-1.0054306668054034,0.22640153155416093,-0.29075755903762784,0.12662659210219396,0.1984075040561187
-4.403504441430411,-0.8414531288557856,-0.038929586354878136,1.065396844899555,-0.24933123786112674,2.5684921003294168,0.1882097841300602,-0.06700151336978173,0.09953725734214916,-0.38567041001263747,0.23989714092807213,0.008690685083543922,0.19807366562249384,0.025461348647448465,-0.16641876222851013
10.815662611868104,-0.075145906433848,0.13387650225702438,-1.4992331191898842,-2.5942794264787863,0.1380159305757937,-0.8325058333771009,0.09292138901646921,-0.2979354356698449,0.07879916753554467,-0.25026268171936794,-0.014964680718562787,0.1404992603871059,0.16941942549855457,-0.06951252237209513
-4.447705502547325,16.556786993876205,-7.699961653421505,0.651716670814116,-0.1704816609277784,-1.4772032478842565,-0.4984295687674252,-0.6575740889550343,-0.046643812038506614,-0.4485314789887427,0.1708934128542436,-0.13723747247825593,0.2003918423826792,-0.028416326411968926,0.06291512893670984
9.104621219370069,-0.33585660116662774,0.1863551389990638,-1.5604753634458581,-2.6686260482228956,-0.2869443118687532,-0.6525807901465617,-0.17978523490875925,0.13667615059226657,-0.11937941898287353,0.0679479114993308,-0.4502435341947604,-0.10655576510275644,0.17830774654217013,-0.03554404684416127
-5.37987469040207,-1.217512359372982,0.3829054115435121,-1.3686875319283436,0.9124490828579813,-0.6071643114671439,-0.5432877062334347,0.19699875619023433,0.6833576757204445,0.026008290140892003,0.30253681171419383,-0.3689350168574689,0.039959505021805244,-0.3052751782682146,0.15645338133114045
-4.398302978737055,-0.8958045243726139,-0.011602991066654713,0.9875053627058404,-0.17828680838408187,2.309948997924133,-0.07193706136651942,0.10682822130532996,0.07943517349971142,-0.5688277254459696,0.4027341089554911,-0.05225100985577519,-0.0917113832988833,0.0199141056474937,-0.1931807454458171
-4.394563158134748,-0.9317142618136843,0.0391485290341921,0.7231936115837535,-0.1948421732713648,2.19847279519908,0.7701102938252118,-0.4921019720998582,-0.06706286553502011,-0.28849005845035725,0.054822076072161496,0.0778593120088596,0.043406466929051084,0.007388753809347129,-0.05149116117195622
17.38599612332656,0.8314760480603786,0.027890549913224833,1.778008115555579,5.127906561694832,0.694695329971319,0.8242028290073118,0.6824318522489262,-0.33107367967709034,-0.309334987647217,-0.4193054535645654,-1.0525858012420901,-0.2704892920686865,0.93288879402566,0.02196354713364692
-4.295226123151412,19.367171574313574,-9.119920136042238,1.244568395601024,-0.2879972593646271,-2.4178820199543827,-0.6373662377470285,-0.7268266329832052,-0.29352819386211504,-0.7189992208683461,0.23945133928268522,-0.20451442652078142,0.16767330861059843,-0.11895339778425588,0.4485382651642369
-4.158519959338251,-0.9970006761807063,-0.11246791750123093,1.7292075221511676,-0.5052445891053279,2.067859845687126,0.6970465942883283,-0.5812259943049246,-0.05927788405880925,-0.6343702209023103,0.4346923973669146,0.0593755969801632,0.051796722046972665,0.006263659336064438,-0.23551832161245947
6.979644199330277,-0.21837874588700526,0.3384268146430728,-1.96220116448861,-1.6778747349701066,0.9555488038530257,-0.7499251063085699,0.20923225628599854,-0.22746340793167985,0.2700264571883599,-0.40551168521810926,0.028263938229764342,0.10273123534019209,0.08738678901614479,-0.0460709465828846
-4.302701890021711,-1.3118486915152874,0.08965882865225233,-0.045797535650993204,-0.2335578805918368,-1.6430714451708122,2.4059354576816374,-1.5249802407490967,-0.412815560916197,-0.10953919313799357,-0.6806147680919511,0.10953581667700964,0.12621551314285506,0.004047107849681382,0.2634836057091584
14.687066031077073,0.16396657755404337,0.06880738883151624,0.1895834217886727,0.5522496951522011,-0.08858026778427076,-0.3343854494563955,0.17822404324694352,0.07171204949292531,-0.40577462854512264,0.38776595347103093,0.5584612138477474,-0.3680623252830472,-0.8126608219625063,0.06026346994421898
-5.215485719150013,4.763652509682123,-1.9011071727015054,-1.8730461613393148,0.6217364343940984,1.2317006242770676,0.07493581117128284,-0.18082444656660307,0.18994185189227408,0.35621330631929154,-0.14860869272463215,0.1309684685312931,-0.29195657067391506,0.08876634418914367,-0.2971009402439385
-4.9060422463091165,9.485002901349114,-4.2846855498471825,-0.7168124165284849,0.21725264900113556,0.21232410099867446,-0.22545381047437088,-0.24673961421281754,-0.018405363036733655,0.08286744540230345,0.010996199998021752,-0.008869539622538065,-0.02442949416618906,0.014581626243650142,-0.0869291636833649
-2.5264566510127198,-0.5659429460397937,0.5800988072476291,-2.822324654083075,0.4384233481284549,2.2277868321381185,-0.24224067454651727,0.09457460437952288,0.04169292935681106,0.5875418677296916,-0.48889156945569673,0.22092464553339233,-0.37376241266861704,0.0836661468580906,-0.11567208992775344
-4.095825339474388,-1.114687277507039,-0.09070495602463362,1.7476628806956778,-0.5034627688735739,1.749894021178095,0.33643344471298453,-0.33186085961216666,-0.11900483830959817,-0.8425408760417282,0.5281918543759664,-0.0606806664900577,-0.1457892902920893,0.028887704774304794,-0.3496504435372321
-3.39881427939808,-1.2557162345281092,-0.4233672626798186,3.8572984975137747,-0.5081974202089807,-1.2079392404699865,-0.2679022243230103,-0.24903455618376588,2.8359385794583702,-0.007561255391121388,-0.7970252029435012,0.3292845894319236,-0.5600490229134516,0.2049415269170061,-0.4223229987090367
-5.001868420636502,-1.139657556388924,0.27426201302644493,-0.9138814633733066,0.6360433624381853,-0.8061331890278535,0.023504099208601494,-0.4157992570599301,0.4102578350341557,0.6297195992102272,1.2839049647847993,0.1601705752468508,-0.21728820908856702,0.4447816935859559,0.43747952933574175
-4.07600577739692,-1.2303664662338725,-0.0018785824248051409,0.130165757746424,-0.3037799600070038,-1.6106465386055877,2.8774550159328953,-1.8679928512774693,-0.27372183325923033,-0.003543744163172293,-0.6796251580972524,0.15227673477273204,0.21751452046433178,0.026182020174200946,0.32550144389687374
0.35554224982296023,-0.45669278829739224,0.4842378317627518,-2.5513218352340075,-0.24755024649333926,1.9145208340356918,-0.3615789749679646,0.03997257619368084,0.008145896605714721,0.5155602410691252,-0.500864471116435,0.20526215909981838,-0.1994336565711489,0.10111887227602875,-0.11309509140579867
-4.148585682541107,-0.8628400740448299,-0.26663781416255555,1.956644327425104,-0.4874606668508619,1.8571850458746368,-1.0962962741060212,1.039885827574816,-0.34271377282257043,-1.3047565801835737,0.6717291394574506,-0.38816367610084074,-0.3516104573403168,-0.06571565844513727,0.16910522682863513
-4.166409763530439,-1.0151050584794241,-0.1291259612942154,1.5496192339115018,-0.4244934179826529,1.7973649001649123,-0.07941354514914627,0.08013212727783796,-0.3844743064391168,-0.8688976462752005,0.3705575413596919,-0.034993827941447724,-0.16788498913889838,0.05179575466769837,-0.17635346743721375
-4.118205531337428,-1.3240859388288893,0.008918188349516395,0.29450347584716813,-0.35205684904319845,-1.8044753805330311,2.7461217639582336,-1.8253581037295483,-0.2630697547868308,-0.1029569312525178,-0.5913011417040204,0.11204311686321505,0.1437816057598764,-0.007716368528087873,0.29533575404853957
8.936017693440157,-0.19799032844676537,0.2419425618574524,-1.6472691017536327,-2.2400186616927322,0.5069737148164168,-0.6925257711105457,0.0743453599881474,-0.09792998632979573,0.20671755857818694,-0.37100920028776385,-0.09119540593047659,0.22119906013083857,0.14202086588599144,-0.041200923480075965
-0.7327754391632231,-0.49206877682521266,0.5010255829092215,-2.6310562158939077,0.1994965028825277,1.9509685492476716,-0.34549705292818944,0.10627763070419785,0.028145964448322274,0.6187846657019289,-0.5596374624341358,0.20737588388809816,-0.06290200473024676,0.05779881026634917,-0.04880273440690373
4.677434116286553,-0.29577371138950187,0.3196213681941936,-1.9673190449141744,-0.9013165866898092,1.0767952957283118,-0.5463890222785821,0.07570810997948042,0.19938560289577545,0.447763465138274,-0.5162618082613005,0.22059566435006944,0.18237545367439129,0.061000729604368045,0.011413878946169525
-4.288530022254085,-0.8888923996517416,-0.1092584365195628,1.5274348351695788,-0.3643441881514068,2.54714072497765,0.3837827650090316,-0.26829585467945966,0.08879385973774985,-0.4770860608995009,0.315788710022856,-0.038385340133104455,0.15181660693431273,-0.04532547289088854,-0.0743743018153123
-3.453945905209993,-1.2230577495093933,-0.41974271670418617,3.8897627147007414,-0.5973079944912913,-0.6992897961762649,-0.7265194586703903,0.24633703612954977,2.222804717184549,-0.008971464650818665,-0.8257170961932311,0.2533226073625727,-0.14699125106802652,0.18992156456626258,-0.2127689494638256
10.125885981295573,-0.3353857715182185,0.013891115361795662,-0.7760764999078175,-2.949988570646463,-0.5888875178281836,0.1287988301810104,-0.8608343328578157,0.3821043017967816,-0.15684463448516128,0.23265821635263242,-0.22973379435027358,-0.12225823629395624,0.06901020006910427,0.038690748335073834
9.523460839549115,-0.32535067473817597,0.004899591308533813,-0.744497166193499,-2.7880457046557545,-0.6283628351933562,0.42028070952334995,-0.9682858175671218,0.44009865508048146,-0.019533624515742577,0.13672675954479144,-0.23889514563128134,0.049190147644125284,0.08017913588871223,0.05817555828626079
-4.859458941343856,-1.271369875188647,0.2464527517431951,-0.8167756936728753,0.21289155810344107,-1.1375506748594415,0.7144817500612146,-0.23160373645374718,-0.7014414662152877,-0.25316193593026004,-0.8300824482306942,0.16531930630548472,-0.3847059575554924,0.14522405430708968,0.4209342697380378
-2.6247684985802873,-1.1237069875453867,-0.6877940677216405,5.1630936207258165,-1.4322930471250226,-1.126728218010051,-1.2291487424748946,0.35879259234873523,-2.0994383714801828,0.9063943000585396,-0.2860896939205978,-0.33685297142421794,-0.32510773061821424,-0.4776534093692241,-0.387194730328012
-4.674205240970571,-1.331800098623783,0.1883139607775496,-0.5253550194175718,-0.026470475701511776,-1.2555988045328608,1.2947028939558634,-0.8145724537364164,-1.1352695172555902,-0.41182706538236724,-0.37750407172438233,-0.07183291367089177,-0.26001880275527994,-0.021898193982812335,0.1583897889354798
-4.40872389600715,-0.8902017384407344,-0.08194089096856172,1.4436803390744377,-0.3487647100723954,2.714948543352969,0.4387424044224325,-0.37113908170245924,0.1804163539089696,-0.4094743382399605,0.14554825630231522,-0.09933187966542255,0.1754693374451668,-0.12112764634015705,0.04803983605888052
-4.890109850540427,9.038070597927117,-4.140560140195935,-0.8658846939607339,0.16792220411887718,0.4468131526434709,-0.208272948392065,-0.021849439821107472,-0.030668302867165303,-0.026305932068046156,-0.0002547340127164368,0.059126578736367744,-0.0657059727786815,0.02792235879418807,-0.05927397914203773
-5.04437349161286,-1.2512114404862504,0.2849456138019856,-0.4384367045778971,0.5175693554251567,-0.7979172909072261,-0.7564675605728296,0.4375295070478421,0.3568971809131921,-0.3125395480366219,0.41955751524674006,-0.12302901208894435,0.17993047984242547,-0.09428067105422655,-0.1185876484852253
-5.492987260014488,-0.6530949498388499,0.6335359270742756,-3.24560129527701,1.2088769754101951,2.0596418038267057,0.22728330598929278,0.021593550673655062,0.14430507237267792,0.5944779252995794,-0.39892996984728146,0.2152995761402139,-0.730336618541536,0.18546680421638262,-0.08592474866656963
-4.970750695107261,-1.3364716531591958,0.3442815733587874,-1.0284773417125295,0.3214204668923362,-1.1288750922616022,0.44083047913417495,-0.1444528937970539,-0.9411344623369143,-0.3488291675460114,-0.2617843458427402,0.23260018002351632,0.09529245493888544,0.08573026641313775,-0.2154742586164059
-5.140931810467017,-1.2165879311124372,0.40713601901556684,-1.3605073163170875,0.7099050926623697,-0.46854056402101835,0.38054677558752525,-0.416550171536976,0.7899599072536261,0.3547045455571279,0.14087519993344744,-0.017855303179445586,-0.1045046807026532,-0.10213123235720328,-0.18041918787893851
12.161714219954204,0.15084744432561217,0.14414996766063773,0.7283191642263828,2.6502749209899568,-0.1327274980065291,0.27321021228598563,0.35391947835986665,-0.07865334583703867,0.11561156804848756,-0.07343769373730252,-0.19989742263104532,0.050681371898991245,-0.09048064769473217,-0.02572051793354889
-5.149184200775335,-1.244590862556919,0.38973492999175224,-0.962793673906282,0.6335062430699588,-0.6983023720899084,-0.6729659936502654,0.559388034272568,0.20281998063067477,-0.25635021727986496,-0.012079941284709239,0.060877683774237176,0.14216624370213402,-0.03528420080599798,-0.08402297504462453
-5.191761264304953,-1.2171744563682194,0.43267796276469705,-1.4602738766048053,0.7489902429554183,-0.4216238435303224,0.2591540005862728,-0.36442591917323347,0.7259328599491502,0.352875442250328,0.21758550863823975,-0.032141347591771896,-0.07298430163062186,-0.09997380432748655,-0.20288434665456268
11.582831301641962,0.12292907647146424,0.14379211745303208,0.5932536796318093,2.534547481686164,-0.06292300578200896,0.3069900362879554,0.30162801675642864,-0.04242347034530583,0.12774896633859045,-0.05097787523632782,-0.16944811479990163,0.028933409632148,-0.07376667130856938,-0.07829828692479397
12.140730142082342,0.20402004595009232,0.13412357411017015,0.8101534613172935,2.737546633260588,0.04970752201735257,0.08841420060219825,0.44374702299612634,-0.15776950363950693,0.07237880660920898,-0.016266839856401795,-0.13103301256110986,0.11633781235811705,0.049958480118421286,-0.08261186760979171
-5.124314299083878,-1.1378008811236533,0.37453971412336756,-1.140869251919195,0.642577515878399,-0.500517976801159,-0.5563201211528762,0.4745547689709738,-0.031025294227337238,-0.30152271115718166,0.13216988021841009,0.003581639393965155,-0.006588142344047831,-0.014292827994515832,-0.05589192909730377
-5.310516903993758,-1.1640583698033211,0.4844510525455363,-1.6670968769388035,0.8911127438549267,-0.37674244445202076,-0.5033126869188526,0.2699946269356441,0.4305593274066641,0.0927553241387527,0.31444699688869704,-0.15040181450675089,-0.12295146298842108,-0.10262353665865111,-0.05295950928901034
-5.080756669740266,-1.2902355649002046,0.31940135029916245,-0.43951408073891124,0.5435525948738651,-0.7969148488521487,-0.7482744234542451,0.4202926072967669,0.4830323923088245,-0.24086893660894973,0.2594024378929163,-0.0800361712483675,0.29387578090010225,-0.06877038045042698,-0.07691013376040992
11.829920418482866,0.11331835051761599,0.03477283744340334,0.9505023516251291,2.39150102783737,-0.41605910933070694,0.6181688453024559,-0.017480922007979693,0.05888185416378469,0.19736792641399364,0.08063709217170019,-0.0939366934842702,0.06114582936181043,-0.03700237753315855,-0.0999682575219955
-5.060283539116797,-1.2595002935371362,0.33968077478980174,-0.5401743076874864,0.5712432298289841,-0.7995448780228849,-0.8033159339630347,0.5515141985804713,0.34219892192678275,-0.2875459943330627,0.28081343289902044,-0.13205947354402842,0.41857208293126363,-0.09426870615662754,0.007997087393276555
-4.99191886587049,-1.1526663972704918,0.20786488575410084,-0.2084822296227101,0.43627063968986046,-0.5712741274179874,-0.9137964398149336,0.7230962405862538,0.029399704975265374,-0.7256251932296754,0.6412809463595419,-0.29567772177151797,0.7476275745751577,-0.029826260409314225,0.13872406188199143
12.079528144303287,0.13370844516900518,0.1139790731811871,0.7535248499594719,2.69672303808099,-0.14336868995092575,0.1919911084590463,0.3370051435782657,-0.1262831629129669,0.06632101234267547,-0.01518177962762314,-0.1488844011829956,0.04272865456205535,-0.040676632099088075,-0.06255155052250289
12.026177864250428,0.18227809310690815,0.12907640698246298,0.7394364073284776,2.658004024900165,-0.1136370512694474,0.20242319260485578,0.33116166704405514,-0.17778585707800168,0.07711924545338177,0.003115802480045435,-0.13774497157272608,-0.03442164125275261,0.010343765011596937,-0.06868821973779082
-5.0383365959430595,-1.3428011318278346,0.35630055229278396,-1.184783442033612,0.3556900550792183,-1.2827866867435287,-0.3477421717194504,0.5083593160252573,-1.4728700745459968,-0.5765958854204978,-0.24708892759753046,0.11680950364300266,0.02004992816754736,0.10373395533726226,-0.12984958526809098
-5.046995057128912,-1.3729448695457545,0.2705098745628956,-0.12870842350924935,0.5005623187060624,-0.9620428379695036,-0.915657574335183,0.485914163026742,0.6178019233187148,-0.26428105567267196,0.28307646333629005,-0.07944896937406883,0.5816421310601433,-0.08871099810332772,-0.04424562223164601
12.0020821032917,0.17588243137438664,0.12776390042810834,0.68497486338979,2.630739913086547,-0.08543253851333454,0.16846712163404665,0.329546683474434,-0.12628018309235314,0.03770940856271472,0.037941957740864674,-0.1507829093094014,0.003864474688930161,-0.0739076360362446,-0.08899883595131655
-5.134414647613355,-1.2106130302606553,0.403457482264895,-1.340514332521417,0.7112895542586329,-0.4835980004374574,0.3370773786295945,-0.39079246932966466,0.8069680452186957,0.35124036057737673,0.14055614976622596,-0.021993068610176275,-0.06019710224887022,-0.10208116196506153,-0.15895124974024044
-5.026467031051038,-1.2296443846163003,0.1919424627725411,0.12590944435156454,0.4951135783704456,-1.0636821938177738,-1.1051869614126453,0.6148557122348617,0.5389866372272613,-0.4052554202462595,0.4545748000340978,-0.17711780488399023,0.8771357586263835,-0.13587017137413757,0.06621458388667642
-5.154560427889082,-1.2191538928016512,0.4467339119389601,-1.2927457836741338,0.6909425873987274,-0.47491141514473073,-0.5010546677617952,0.45467265328236595,0.008039888762862794,-0.27074122540496226,0.1400356270099797,-0.018676682530681436,-0.12227986736183057,-0.03936363936544294,-0.07698941271197167
-5.099064781104494,-1.298662098822965,0.26991671728757355,-0.36890560257210003,0.5475679624562555,-0.8967044875737378,-0.814554034905464,0.4249436564600733,0.4897580871750125,-0.24805398896325237,0.24387898782366202,-0.04841963263831263,0.42023914404941887,-0.07368664073621989,-0.03813819319116448
-5.106179892251714,-1.2115516078512292,0.40976798193112124,-1.3646738591927603,0.6460073105266645,-0.40455966807821636,0.4314303273871081,-0.42565875087142563,0.7439807019159623,0.31241219653991104,0.15208873596012853,-0.05819268668369953,-0.09811241824260676,-0.11729743297984038,-0.1539071558594419
-5.18571305393901,-1.1781143543642862,0.4117026189775856,-1.4522310324787142,0.7236559153916093,-0.39529986361699293,0.29886067617970463,-0.2975665450295241,0.7986289635610458,0.34089333495375024,0.1356480894697346,-0.005357777099803819,-0.06179597992018794,-0.07581143476182166,-0.1836254693897207
-5.139519074574144,-1.2163199752973959,0.3925801808654813,-1.375612202242314,0.7400453365990062,-0.4898323118456833,0.3018013333421076,-0.3751658401772782,0.7737046458912845,0.3224292341806712,0.18407070043174983,-0.02435335506254177,-0.06709320353266392,-0.0777644944995824,-0.16404871644202787
-5.089869277633059,-1.3302872845707714,0.35683792961920335,-1.2054953754292954,0.41338774417154983,-1.2359924779720297,-0.39771128140882683,0.5081591913728407,-1.5319171765711408,-0.5630012344519949,-0.19408982086372256,0.14387469867449007,-0.0371424155760883,0.08563635635931985,-0.12971942504349912
11.158508772966957,-0.11712697454936452,0.10961985748107558,-0.26313219641866215,-0.6332121780979763,-0.5328540831906255,-0.09760014353385256,-0.2136413492384054,0.19370004194696508,0.09613516021286839,0.43434136587822597,0.9241130800514838,0.2955180088324888,-0.06337133485079861,0.04690781090077344
12.33207303764556,0.17602592963515784,0.1144728796700074,0.8060191610364638,2.51330894600758,-0.17046190375047468,0.29824748861727857,0.2566234687536348,-0.10380710224505547,0.0649562700652406,0.04924676591643365,-0.13296340858565434,0.08975705515596072,-0.06795461338458014,-0.057349408610026645
11.02406938605505,-0.07495703078677038,0.15313994197128045,-0.6329238819320104,-0.5028575281206926,-0.2916287794538118,-0.5651783185444162,0.21161648264317992,0.019513070558322566,-0.1302609479861161,0.09674845028962335,0.5344099890807044,0.11077892764538348,-0.46771368828943205,-0.062016691470282465
11.914859825161694,0.18329663716760863,0.08681465148512091,0.7040723007336327,2.6462251477417342,-0.15211286130700993,0.1744956180833938,0.33421532356068046,-0.18342346523569716,0.052571634527971006,-0.012360805872001196,-0.08632892890852042,0.007967622697787042,0.0384130721504137,-0.08112605353479038
-5.190662158556193,-1.2103432375729106,0.41978623238727525,-1.3608181559455457,0.7590564021439412,-0.5135894782706818,0.19183442520711935,-0.33607866005575293,0.8139167677699957,0.3102321706276588,0.1852599000211544,-0.015682431123260683,0.04493133236645248,-0.0814415354354339,-0.16193645635749387
-5.045652385682027,-1.3363064145510801,0.35595930205314846,-1.0951719897993502,0.3707616864318656,-1.4012772099958353,-0.3524096716898538,0.4752379546075077,-1.3600026608226634,-0.5685719269206124,-0.2573870478879635,0.12811893207954642,0.039414135235194325,0.09291962718570851,-0.1096863499566531
-6.29998697466823,18.796357156375244,26.111462326960414,2.2794932695747754,-0.6944758488601654,-0.32915235756375805,-0.05864620958236521,-0.24055149405378645,-0.052962675216462266,-0.05966510221699499,-0.0012025603929377536,-0.005929984437638522,-0.006142329622395991,-0.007925091306451727,0.01673939442707997
-5.111607604387832,-1.3261865852926888,0.3550353060510758,-1.229482299475652,0.40184326924663566,-1.1969559886001628,-0.24115819458238796,0.3850774200287654,-1.3323666124705116,-0.5171703004337718,-0.25915578608368534,0.14420581630290785,-0.057212527672265374,0.07568264409937833,-0.1718675016071613
-5.074481884874787,-1.2848267851895177,0.2520317316024848,-0.09395280377095283,0.49529593958294593,-1.0106064470775697,-0.9710885265739442,0.5656964026450845,0.5570543906985446,-0.29166131747228197,0.37084021184109345,-0.08122110053017138,0.7325268503559536,-0.1438923928419935,-0.012632245101820552
-5.169426314261714,-1.2276731659059823,0.3932241359857885,-1.3195926698823064,0.7358515112967106,-0.5589806413811695,0.2909729801306109,-0.3806953827578648,0.819412359662621,0.2893739311893604,0.20006562907697423,-0.044932667315152316,0.03089816773737941,-0.10664418171545739,-0.12250194010366318
9.379014179339812,0.15048776780604353,0.10475738751744756,1.2062310159792908,2.496519508067871,0.8244123823321743,-0.43766930569060036,0.7603244273525052,0.2803776382574769,0.6894925283574868,-0.7654783009395476,0.1990679876595882,1.4862420069742959,0.2820664554325448,-0.014767435238335683
-5.139568749436797,-1.1834257637296561,0.3971344654335309,-1.2868605733424456,0.6951471248184825,-0.43562889080968287,0.4095652585905815,-0.47269028842281974,0.7534799869622552,0.28054943333941396,0.18296987641784912,-0.06453087079480398,-0.129482058157773,-0.13778120300991,-0.15500748975136067
-5.12956185287882,-1.3300803063879,0.38476642441281167,-1.207548598888211,0.41072297185264367,-1.2502360248340294,-0.37062267650948366,0.5081671141800048,-1.3742966613493535,-0.5460842308987802,-0.27970394497695383,0.14194969196685406,-0.021978479350168313,0.06809371471404801,-0.10892120944699295
-5.2233921026460655,-1.2627928206048002,0.43704495329099674,-1.4521140016324356,0.7528151854560312,-0.47478263457945136,0.1703191687825958,-0.2855027361942532,0.7551410861219761,0.2810948341137144,0.30615583403695035,-0.07238680421345205,-0.04594696672772927,-0.10553630454802213,-0.1741281336176804
-5.042705520194794,-1.2639460630424562,0.32348398992380095,-0.33547943034283123,0.5505977447266286,-0.8980670554417478,-0.7159486333282442,0.36562602532929156,0.6454905232941545,-0.19707176201900425,0.2030105755249256,-0.024398729404235833,0.40879841954657514,-0.11747404578918313,-0.11530599506609229
-5.1636181991894095,-1.2185974064089458,0.4127911519645281,-1.4084396550953646,0.7408514174486545,-0.44440670476022315,0.30980409656269053,-0.3580005028147371,0.764795372086263,0.3456407091472981,0.18782664963874146,-0.01694823188168462,-0.10179180691915247,-0.08232505663096407,-0.17608392999706218
12.179503267562056,0.15021095246735905,0.10099995819915202,0.7107133023764179,2.594743009189885,-0.17789549334505056,0.25302040418005883,0.3595791428168883,-0.11594905542950262,0.07740945235573168,-0.030575278398111874,-0.0955249915542212,0.08590669721550612,-0.05850932086736724,-0.013587208664215445
-5.130604622871274,-1.1755516095821004,0.39903673836735637,-1.4889960430757665,0.5264060847155567,-0.7476970978326712,-0.22602194340170187,0.35947656145210194,-0.9902727528739222,-0.2345591058560031,-0.42574254317098237,0.2294325536517471,0.022288403945349325,0.13332525788013955,-0.1135028752536551
-5.052426400168191,-1.2776167218977894,0.3347679044583609,-1.1919654378852131,0.42508108534786315,-1.176329380016824,-0.38465462050100047,0.5125692098254967,-1.3643198989786973,-0.5039315688143656,-0.3505983628383029,0.19915978829340503,0.11913531806113382,0.12182033802361779,-0.13938401447192936
-4.868472224324149,-1.136230145447055,0.302867455820781,-1.018519147871081,0.5698175440713198,-0.5637677135241125,0.9163121764120724,-0.7198010456095942,0.9369146029427907,0.4008148612799107,-0.29211754448798255,-0.14871299375043046,-0.08228232459926456,-0.24953718481736425,0.08753606739625419
-5.083951981893521,-1.3438211865903174,0.3449104101347786,-1.1801616396738135,0.39104379896333746,-1.2848439348030862,-0.37684550752473406,0.5164848442200852,-1.3470730081858266,-0.47526196355657324,-0.38130423685477893,0.21628939679379525,0.10899166245471734,0.1323542791950582,-0.11760078351567695
-5.10038518272527,-1.3195884935299915,0.35920348061144725,-1.1657312085604787,0.42418585118055985,-1.2366140705505364,-0.35328165633746905,0.42499555287751023,-1.3387122432773406,-0.49119711394914883,-0.31059885888032357,0.16987336849395204,-0.0068761942980499835,0.09430269982210579,-0.12897245052420186
12.121377703476355,0.19316883486987996,0.1503059100867596,0.6847371351553853,2.7052823876086967,-0.03273349776263308,0.17835787157937852,0.348052037573069,-0.11715227816161503,0.08107477562508372,-0.04303096993084913,-0.21276731255392892,0.05472917694478201,-0.022132995545662615,-0.06008731839292089
12.075080976354423,0.20728716345936524,0.07808033778316653,0.7517690695702328,2.5650296799562238,-0.20757055928013404,0.27415387978860173,0.2622096601154586,0.00044541565490157926,0.1387221799876532,-0.1219965661808013,-0.04931242117299309,0.0905280906323426,-0.03452590427671211,-0.06012632578723859
-5.148691580991772,-1.2606453340648824,0.33142556781899013,-0.7622119533041086,0.6666504248494448,-0.7444290221322247,-0.7695453635988707,0.4922680647376786,0.5796508363840897,-0.1502965634177293,0.046722164226071686,0.01908885309220548,0.18163763598498445,-0.11659780285332097,-0.024670157120435837
-4.983844509012639,-1.3962123372539192,0.3306630372871083,-0.9462377948459058,0.390541201063531,-1.6039497013217572,-0.4383593057195991,0.2773802513077123,-1.1551635148217703,0.19157964905474892,0.024141167007868808,0.09365493606341584,0.1664933009721657,-0.0025669223994422632,0.014508754059373003
-5.002461875753838,-1.3534748525262992,0.29026257469363764,-0.1967727246270585,0.48896127882944407,-0.8823802466522852,-0.10308451044676431,-0.2283307725244105,0.9218804438746718,-0.12776372342692718,0.31759198892274243,-0.03721231160677458,0.46231133023494236,-0.10255058613692766,-0.2330739870437617
-5.0621365131136775,-1.333119721853776,0.3073464472670482,-1.030046052771888,0.29796692989987433,-1.419468591651841,-0.40067518399811,0.5737102784255708,-1.4996732769197505,-0.6962260415565907,-0.10329301814535898,0.06743159205337187,0.049912992173920874,0.07015438330739462,-0.10637732728582006
